                                                
 Alfa =  10.00000 Re =  4000000.000 Xflap,Yflap =     0.000000    0.000000
#    x        y        Cp  
   1.00000  0.00000  0.42542
   0.99317  0.00105  0.29407
   0.98181  0.00284  0.23418
   0.96898  0.00494  0.19006
   0.95481  0.00734  0.15448
   0.93967  0.01001  0.11910
   0.92383  0.01294  0.08131
   0.90741  0.01609  0.04080
   0.89055  0.01940 -0.00105
   0.87341  0.02282 -0.04570
   0.85612  0.02627 -0.08935
   0.83879  0.02971 -0.13177
   0.82152  0.03309 -0.17294
   0.80433  0.03638 -0.21140
   0.78716  0.03956 -0.24540
   0.76996  0.04266 -0.27628
   0.75269  0.04568 -0.30522
   0.73536  0.04863 -0.33268
   0.71796  0.05153 -0.36060
   0.70052  0.05439 -0.38961
   0.68307  0.05719 -0.42070
   0.66565  0.05994 -0.45450
   0.64831  0.06260 -0.48905
   0.63098  0.06517 -0.51822
   0.61358  0.06765 -0.54455
   0.59609  0.07008 -0.57067
   0.57850  0.07247 -0.59791
   0.56085  0.07483 -0.62937
   0.54324  0.07718 -0.67081
   0.52576  0.07946 -0.71767
   0.50845  0.08165 -0.76614
   0.49131  0.08372 -0.81687
   0.47431  0.08564 -0.86100
   0.45731  0.08742 -0.90052
   0.44027  0.08906 -0.93555
   0.42313  0.09057 -0.96865
   0.40584  0.09199 -1.00203
   0.38845  0.09334 -1.04223
   0.37100  0.09463 -1.08995
   0.35355  0.09585 -1.14665
   0.33617  0.09700 -1.21243
   0.31893  0.09806 -1.29068
   0.30191  0.09901 -1.37914
   0.28517  0.09982 -1.48056
   0.26876  0.10046 -1.59267
   0.25273  0.10089 -1.71470
   0.23712  0.10108 -1.84822
   0.22196  0.10099 -1.98812
   0.20727  0.10060 -2.13020
   0.19301  0.09987 -2.27296
   0.17920  0.09879 -2.41273
   0.16581  0.09734 -2.54583
   0.15285  0.09551 -2.66769
   0.14030  0.09329 -2.77641
   0.12817  0.09068 -2.87084
   0.11649  0.08770 -2.95026
   0.10527  0.08438 -3.01359
   0.09456  0.08073 -3.06517
   0.08440  0.07681 -3.10105
   0.07491  0.07269 -3.13098
   0.06611  0.06845 -3.15060
   0.05801  0.06412 -3.15916
   0.05058  0.05974 -3.16445
   0.04384  0.05537 -3.15665
   0.03782  0.05110 -3.13504
   0.03251  0.04699 -3.10992
   0.02785  0.04308 -3.07793
   0.02376  0.03936 -3.05261
   0.02014  0.03581 -3.02473
   0.01693  0.03241 -2.99663
   0.01412  0.02917 -2.96015
   0.01165  0.02609 -2.91934
   0.00948  0.02317 -2.87990
   0.00759  0.02040 -2.87091
   0.00596  0.01777 -2.84909
   0.00454  0.01525 -2.83426
   0.00334  0.01283 -2.80863
   0.00232  0.01049 -2.77735
   0.00149  0.00824 -2.71747
   0.00084  0.00607 -2.65825
   0.00037  0.00398 -2.61117
   0.00008  0.00198 -2.51501
  -0.00000  0.00004 -2.30342
   0.00012 -0.00188 -1.93608
   0.00046 -0.00380 -1.50959
   0.00099 -0.00572 -1.08480
   0.00175 -0.00765 -0.68267
   0.00275 -0.00960 -0.30745
   0.00402 -0.01154  0.03157
   0.00559 -0.01343  0.34094
   0.00748 -0.01523  0.59107
   0.00968 -0.01696  0.76961
   0.01218 -0.01860  0.88508
   0.01496 -0.02019  0.95194
   0.01805 -0.02177  0.98695
   0.02152 -0.02333  0.99960
   0.02543 -0.02488  0.99548
   0.02986 -0.02640  0.97848
   0.03490 -0.02789  0.95211
   0.04063 -0.02933  0.91992
   0.04713 -0.03073  0.88490
   0.05448 -0.03210  0.84807
   0.06278 -0.03348  0.80835
   0.07216 -0.03482  0.76806
   0.08273 -0.03611  0.72832
   0.09452 -0.03733  0.69006
   0.10755 -0.03845  0.65386
   0.12173 -0.03947  0.62070
   0.13688 -0.04037  0.59002
   0.15281 -0.04118  0.56135
   0.16933 -0.04189  0.53493
   0.18630 -0.04252  0.51040
   0.20358 -0.04308  0.48756
   0.22107 -0.04359  0.46541
   0.23863 -0.04405  0.44334
   0.25620 -0.04446  0.42192
   0.27372 -0.04481  0.40060
   0.29117 -0.04507  0.38072
   0.30854 -0.04525  0.36150
   0.32583 -0.04532  0.34449
   0.34309 -0.04527  0.32967
   0.36037 -0.04510  0.31748
   0.37773 -0.04483  0.30742
   0.39518 -0.04445  0.29853
   0.41272 -0.04400  0.29079
   0.43036 -0.04348  0.28252
   0.44805 -0.04291  0.27469
   0.46577 -0.04229  0.26607
   0.48345 -0.04163  0.25652
   0.50109 -0.04091  0.24846
   0.51872 -0.04012  0.24124
   0.53635 -0.03926  0.23496
   0.55396 -0.03836  0.22795
   0.57152 -0.03739  0.22111
   0.58903 -0.03634  0.21522
   0.60653 -0.03520  0.21270
   0.62411 -0.03398  0.21203
   0.64177 -0.03269  0.21123
   0.65950 -0.03134  0.21189
   0.67735 -0.02994  0.21372
   0.69529 -0.02852  0.21407
   0.71323 -0.02710  0.21282
   0.73114 -0.02570  0.20936
   0.74901 -0.02430  0.20426
   0.76679 -0.02288  0.19924
   0.78443 -0.02143  0.19419
   0.80191 -0.01992  0.19110
   0.81930 -0.01833  0.19077
   0.83663 -0.01664  0.19404
   0.85396 -0.01486  0.20050
   0.87130 -0.01300  0.20936
   0.88861 -0.01107  0.22125
   0.90581 -0.00911  0.23663
   0.92271 -0.00719  0.25333
   0.93899 -0.00537  0.27135
   0.95437 -0.00373  0.29115
   0.96866 -0.00233  0.31125
   0.98160 -0.00122  0.33016
   0.99310 -0.00041  0.35457
   1.00000  0.00000  0.42542
